X,CH1,Start,Increment,
Sequence,Volt,-1.300000e-01,2.000000e-04
0,4.00e-01,
1,-1.20e+00,
2,-8.00e-01,
3,-2.80e+00,
4,-2.00e+00,
5,-3.60e+00,
6,-3.60e+00,
7,-4.80e+00,
8,-4.40e+00,
9,-6.00e+00,
10,-5.60e+00,
11,-6.80e+00,
12,-6.40e+00,
13,-8.00e+00,
14,-7.20e+00,
15,-8.40e+00,
16,-8.00e+00,
17,-9.20e+00,
18,-8.80e+00,
19,-9.60e+00,
20,-9.20e+00,
21,-1.00e+01,
22,-9.20e+00,
23,-1.00e+01,
24,-9.60e+00,
25,-1.00e+01,
26,-1.00e+01,
27,-9.60e+00,
28,-1.00e+01,
29,-9.60e+00,
30,-1.00e+01,
31,-9.20e+00,
32,-9.60e+00,
33,-8.40e+00,
34,-8.80e+00,
35,-7.60e+00,
36,-8.00e+00,
37,-6.40e+00,
38,-7.20e+00,
39,-6.00e+00,
40,-6.40e+00,
41,-4.80e+00,
42,-5.20e+00,
43,-4.00e+00,
44,-4.40e+00,
45,-2.80e+00,
46,-3.20e+00,
47,-1.20e+00,
48,-1.60e+00,
49,4.00e-01,
50,-4.00e-01,
51,1.20e+00,
52,1.20e+00,
53,2.40e+00,
54,2.00e+00,
55,4.00e+00,
56,3.60e+00,
57,5.20e+00,
58,4.80e+00,
59,6.00e+00,
60,5.60e+00,
61,7.20e+00,
62,6.80e+00,
63,8.00e+00,
64,7.20e+00,
65,8.80e+00,
66,8.40e+00,
67,9.20e+00,
68,8.80e+00,
69,1.00e+01,
70,1.00e+01,
71,8.80e+00,
72,9.60e+00,
73,1.00e+01,
74,9.60e+00,
75,1.04e+01,
76,9.60e+00,
77,1.04e+01,
78,9.60e+00,
79,1.00e+01,
80,1.00e+01,
81,8.80e+00,
82,9.20e+00,
83,8.00e+00,
84,8.40e+00,
85,7.20e+00,
86,7.60e+00,
87,6.40e+00,
88,6.80e+00,
89,5.60e+00,
90,6.00e+00,
91,4.80e+00,
92,5.20e+00,
93,3.60e+00,
94,4.00e+00,
95,2.40e+00,
96,2.80e+00,
97,1.60e+00,
98,2.00e+00,
99,0.00e+00,
100,4.00e-01,
101,-1.20e+00,
102,-8.00e-01,
103,-2.40e+00,
104,-1.60e+00,
105,-3.60e+00,
106,-3.20e+00,
107,-4.80e+00,
108,-4.40e+00,
109,-6.00e+00,
110,-5.60e+00,
111,-6.80e+00,
112,-6.40e+00,
113,-8.00e+00,
114,-7.20e+00,
115,-8.40e+00,
116,-8.00e+00,
117,-9.20e+00,
118,-8.80e+00,
119,-9.60e+00,
120,-9.20e+00,
121,-1.00e+01,
122,-9.20e+00,
123,-1.00e+01,
124,-1.00e+01,
125,-9.60e+00,
126,-1.00e+01,
127,-9.60e+00,
128,-1.00e+01,
129,-9.60e+00,
130,-1.00e+01,
131,-9.20e+00,
132,-9.60e+00,
133,-8.40e+00,
134,-9.20e+00,
135,-7.60e+00,
136,-8.00e+00,
137,-6.40e+00,
138,-6.80e+00,
139,-6.00e+00,
140,-6.40e+00,
141,-4.80e+00,
142,-5.20e+00,
143,-4.00e+00,
144,-4.40e+00,
145,-2.80e+00,
146,-3.20e+00,
147,-1.20e+00,
148,-1.60e+00,
149,4.00e-01,
150,0.00e+00,
151,1.20e+00,
152,8.00e-01,
153,2.80e+00,
154,2.40e+00,
155,4.00e+00,
156,3.60e+00,
157,5.20e+00,
158,4.80e+00,
159,6.00e+00,
160,5.60e+00,
161,7.20e+00,
162,6.80e+00,
163,8.00e+00,
164,7.20e+00,
165,8.80e+00,
166,8.40e+00,
167,9.20e+00,
168,9.20e+00,
169,8.80e+00,
170,8.80e+00,
171,1.00e+01,
172,9.60e+00,
173,1.00e+01,
174,9.60e+00,
175,1.04e+01,
176,1.04e+01,
177,9.60e+00,
178,9.60e+00,
179,1.00e+01,
180,1.00e+01,
181,8.80e+00,
182,9.20e+00,
183,8.00e+00,
184,8.40e+00,
185,7.20e+00,
186,7.60e+00,
187,6.40e+00,
188,7.20e+00,
189,5.60e+00,
190,6.00e+00,
191,4.80e+00,
192,5.20e+00,
193,3.60e+00,
194,4.40e+00,
195,2.40e+00,
196,2.80e+00,
197,1.60e+00,
198,2.00e+00,
199,0.00e+00,
200,4.00e-01,
201,-1.20e+00,
202,-8.00e-01,
203,-2.00e+00,
204,-1.60e+00,
205,-3.60e+00,
206,-3.20e+00,
207,-4.80e+00,
208,-4.40e+00,
209,-6.00e+00,
210,-5.60e+00,
211,-6.80e+00,
212,-6.40e+00,
213,-8.00e+00,
214,-7.20e+00,
215,-8.40e+00,
216,-8.00e+00,
217,-9.20e+00,
218,-8.80e+00,
219,-9.60e+00,
220,-9.20e+00,
221,-1.00e+01,
222,-9.20e+00,
223,-1.00e+01,
224,-1.00e+01,
225,-9.60e+00,
226,-9.60e+00,
227,-1.08e+01,
228,-1.00e+01,
229,-9.60e+00,
230,-1.00e+01,
231,-9.20e+00,
232,-9.60e+00,
233,-8.40e+00,
234,-9.20e+00,
235,-7.60e+00,
236,-8.00e+00,
237,-6.40e+00,
238,-7.20e+00,
239,-6.00e+00,
240,-6.40e+00,
241,-4.80e+00,
242,-5.20e+00,
243,-4.00e+00,
244,-4.40e+00,
245,-2.80e+00,
246,-3.20e+00,
247,-1.20e+00,
248,-1.60e+00,
249,4.00e-01,
250,-4.00e-01,
251,1.20e+00,
252,1.20e+00,
253,2.40e+00,
254,2.00e+00,
255,4.00e+00,
256,3.60e+00,
257,5.20e+00,
258,4.80e+00,
259,6.00e+00,
260,5.60e+00,
261,7.20e+00,
262,6.80e+00,
263,8.40e+00,
264,7.60e+00,
265,8.80e+00,
266,8.40e+00,
267,9.20e+00,
268,9.20e+00,
269,8.80e+00,
270,8.80e+00,
271,1.00e+01,
272,9.60e+00,
273,1.00e+01,
274,9.60e+00,
275,1.04e+01,
276,9.60e+00,
277,1.04e+01,
278,1.00e+01,
279,9.60e+00,
280,1.00e+01,
281,8.80e+00,
282,9.20e+00,
283,8.00e+00,
284,8.40e+00,
285,7.20e+00,
286,7.60e+00,
287,6.40e+00,
288,6.80e+00,
289,5.60e+00,
290,6.00e+00,
291,4.80e+00,
292,5.20e+00,
293,3.60e+00,
294,4.00e+00,
295,2.40e+00,
296,2.80e+00,
297,1.60e+00,
298,2.00e+00,
299,0.00e+00,
300,4.00e-01,
301,-1.20e+00,
302,-8.00e-01,
303,-2.00e+00,
304,-2.00e+00,
305,-3.60e+00,
306,-3.20e+00,
307,-4.80e+00,
308,-4.40e+00,
309,-6.00e+00,
310,-5.60e+00,
311,-6.80e+00,
312,-6.40e+00,
313,-8.00e+00,
314,-7.20e+00,
315,-8.40e+00,
316,-8.00e+00,
317,-9.20e+00,
318,-8.80e+00,
319,-9.60e+00,
320,-9.20e+00,
321,-1.00e+01,
322,-9.20e+00,
323,-1.00e+01,
324,-1.00e+01,
325,-9.60e+00,
326,-1.00e+01,
327,-9.60e+00,
328,-9.60e+00,
329,-1.00e+01,
330,-1.00e+01,
331,-9.20e+00,
332,-9.60e+00,
333,-8.40e+00,
334,-9.20e+00,
335,-7.60e+00,
336,-8.00e+00,
337,-6.80e+00,
338,-7.60e+00,
339,-6.00e+00,
340,-6.40e+00,
341,-4.80e+00,
342,-5.20e+00,
343,-4.00e+00,
344,-4.40e+00,
345,-2.80e+00,
346,-3.20e+00,
347,-1.60e+00,
348,-1.60e+00,
349,4.00e-01,
350,-4.00e-01,
351,1.20e+00,
352,8.00e-01,
353,2.40e+00,
354,2.00e+00,
355,4.00e+00,
356,3.60e+00,
357,5.20e+00,
358,4.80e+00,
359,6.00e+00,
360,5.60e+00,
361,7.20e+00,
362,6.80e+00,
363,7.60e+00,
364,7.20e+00,
365,8.80e+00,
366,8.40e+00,
367,9.20e+00,
368,9.20e+00,
369,8.80e+00,
370,8.80e+00,
371,1.00e+01,
372,9.60e+00,
373,1.00e+01,
374,9.60e+00,
375,1.04e+01,
376,1.04e+01,
377,9.60e+00,
378,9.60e+00,
379,1.00e+01,
380,1.00e+01,
381,8.80e+00,
382,9.20e+00,
383,8.00e+00,
384,8.40e+00,
385,7.20e+00,
386,7.60e+00,
387,6.40e+00,
388,6.80e+00,
389,5.60e+00,
390,6.00e+00,
391,4.80e+00,
392,5.20e+00,
393,3.60e+00,
394,4.00e+00,
395,2.80e+00,
396,2.80e+00,
397,1.60e+00,
398,2.00e+00,
399,0.00e+00,
400,8.00e-01,
401,-1.20e+00,
402,-8.00e-01,
403,-2.00e+00,
404,-1.60e+00,
405,-3.60e+00,
406,-2.80e+00,
407,-4.80e+00,
408,-4.40e+00,
409,-6.00e+00,
410,-5.60e+00,
411,-6.80e+00,
412,-6.40e+00,
413,-8.00e+00,
414,-7.20e+00,
415,-8.40e+00,
416,-8.00e+00,
417,-9.20e+00,
418,-8.80e+00,
419,-9.60e+00,
420,-9.20e+00,
421,-1.00e+01,
422,-1.00e+01,
423,-9.20e+00,
424,-1.00e+01,
425,-9.60e+00,
426,-9.60e+00,
427,-1.08e+01,
428,-1.00e+01,
429,-9.60e+00,
430,-1.00e+01,
431,-9.20e+00,
432,-9.60e+00,
433,-8.00e+00,
434,-8.80e+00,
435,-7.60e+00,
436,-8.00e+00,
437,-6.40e+00,
438,-7.60e+00,
439,-6.00e+00,
440,-6.40e+00,
441,-4.80e+00,
442,-5.20e+00,
443,-4.00e+00,
444,-4.40e+00,
445,-2.80e+00,
446,-3.20e+00,
447,-1.20e+00,
448,-1.60e+00,
449,4.00e-01,
450,-4.00e-01,
451,1.20e+00,
452,8.00e-01,
453,2.40e+00,
454,2.00e+00,
455,4.00e+00,
456,3.60e+00,
457,5.20e+00,
458,4.80e+00,
459,6.00e+00,
460,5.60e+00,
461,7.20e+00,
462,6.80e+00,
463,8.00e+00,
464,7.60e+00,
465,8.80e+00,
466,8.40e+00,
467,9.20e+00,
468,8.80e+00,
469,9.20e+00,
470,8.80e+00,
471,1.00e+01,
472,1.00e+01,
473,9.60e+00,
474,9.60e+00,
475,1.04e+01,
476,9.60e+00,
477,1.04e+01,
478,1.00e+01,
479,9.60e+00,
480,1.00e+01,
481,8.80e+00,
482,9.20e+00,
483,8.00e+00,
484,8.40e+00,
485,7.20e+00,
486,7.60e+00,
487,6.40e+00,
488,6.80e+00,
489,5.60e+00,
490,6.00e+00,
491,4.80e+00,
492,5.20e+00,
493,4.00e+00,
494,4.40e+00,
495,2.80e+00,
496,2.80e+00,
497,1.60e+00,
498,2.00e+00,
499,0.00e+00,
500,4.00e-01,
501,-1.20e+00,
502,-8.00e-01,
503,-2.00e+00,
504,-2.00e+00,
505,-3.60e+00,
506,-3.20e+00,
507,-4.80e+00,
508,-4.40e+00,
509,-6.00e+00,
510,-5.60e+00,
511,-6.80e+00,
512,-6.40e+00,
513,-8.00e+00,
514,-7.20e+00,
515,-8.40e+00,
516,-8.00e+00,
517,-9.20e+00,
518,-8.80e+00,
519,-9.60e+00,
520,-9.20e+00,
521,-1.00e+01,
522,-9.20e+00,
523,-1.00e+01,
524,-1.00e+01,
525,-9.60e+00,
526,-9.60e+00,
527,-1.04e+01,
528,-1.00e+01,
529,-9.60e+00,
530,-1.00e+01,
531,-9.20e+00,
532,-9.60e+00,
533,-8.40e+00,
534,-9.20e+00,
535,-7.60e+00,
536,-8.00e+00,
537,-6.40e+00,
538,-7.60e+00,
539,-6.00e+00,
540,-6.40e+00,
541,-4.80e+00,
542,-5.20e+00,
543,-4.00e+00,
544,-4.40e+00,
545,-2.80e+00,
546,-3.20e+00,
547,-1.20e+00,
548,-1.60e+00,
549,-4.00e-01,
550,-4.00e-01,
551,1.20e+00,
552,8.00e-01,
553,2.40e+00,
554,2.00e+00,
555,4.00e+00,
556,3.60e+00,
557,5.20e+00,
558,4.80e+00,
559,6.00e+00,
560,5.60e+00,
561,7.20e+00,
562,6.80e+00,
563,8.00e+00,
564,7.20e+00,
565,8.80e+00,
566,8.40e+00,
567,9.20e+00,
568,9.20e+00,
569,8.80e+00,
570,8.80e+00,
571,1.00e+01,
572,9.60e+00,
573,1.00e+01,
574,9.60e+00,
575,1.04e+01,
576,9.60e+00,
577,1.04e+01,
578,9.60e+00,
579,1.00e+01,
580,1.00e+01,
581,8.80e+00,
582,9.20e+00,
583,8.00e+00,
584,8.80e+00,
585,7.20e+00,
586,7.60e+00,
587,6.40e+00,
588,7.20e+00,
589,5.60e+00,
590,6.00e+00,
591,4.80e+00,
592,5.20e+00,
593,4.00e+00,
594,4.40e+00,
595,2.80e+00,
596,2.80e+00,
597,1.60e+00,
598,2.00e+00,
599,0.00e+00,
600,8.00e-01,
601,-1.20e+00,
602,-8.00e-01,
603,-2.00e+00,
604,-2.00e+00,
605,-3.20e+00,
606,-2.80e+00,
607,-4.80e+00,
608,-4.40e+00,
609,-6.00e+00,
610,-5.60e+00,
611,-6.80e+00,
612,-6.00e+00,
613,-7.60e+00,
614,-7.20e+00,
615,-8.40e+00,
616,-8.00e+00,
617,-9.20e+00,
618,-8.80e+00,
619,-9.60e+00,
620,-9.20e+00,
621,-1.00e+01,
622,-9.20e+00,
623,-1.00e+01,
624,-1.00e+01,
625,-9.60e+00,
626,-9.60e+00,
627,-1.04e+01,
628,-9.60e+00,
629,-1.04e+01,
630,-1.00e+01,
631,-9.20e+00,
632,-9.60e+00,
633,-8.80e+00,
634,-9.20e+00,
635,-7.60e+00,
636,-8.00e+00,
637,-7.20e+00,
638,-7.60e+00,
639,-6.00e+00,
640,-6.40e+00,
641,-5.20e+00,
642,-5.60e+00,
643,-4.00e+00,
644,-4.40e+00,
645,-2.80e+00,
646,-3.20e+00,
647,-1.20e+00,
648,-1.60e+00,
649,-4.00e-01,
650,-4.00e-01,
651,1.20e+00,
652,1.20e+00,
653,2.40e+00,
654,2.00e+00,
655,3.60e+00,
656,3.20e+00,
657,5.20e+00,
658,4.80e+00,
659,6.00e+00,
660,5.60e+00,
661,7.20e+00,
662,6.80e+00,
663,7.60e+00,
664,7.20e+00,
665,8.80e+00,
666,8.40e+00,
667,9.20e+00,
668,9.20e+00,
669,8.80e+00,
670,8.80e+00,
671,1.00e+01,
672,9.60e+00,
673,1.00e+01,
674,9.60e+00,
675,1.04e+01,
676,9.60e+00,
677,1.04e+01,
678,9.60e+00,
679,1.00e+01,
680,1.00e+01,
681,8.80e+00,
682,9.20e+00,
683,8.00e+00,
684,8.40e+00,
685,7.20e+00,
686,7.60e+00,
687,6.40e+00,
688,7.20e+00,
689,5.60e+00,
690,6.00e+00,
691,4.80e+00,
692,5.20e+00,
693,4.00e+00,
694,4.40e+00,
695,2.80e+00,
696,2.80e+00,
697,1.60e+00,
698,2.00e+00,
699,4.00e-01,
700,8.00e-01,
701,-1.20e+00,
702,-8.00e-01,
703,-2.00e+00,
704,-1.60e+00,
705,-3.20e+00,
706,-3.20e+00,
707,-4.80e+00,
708,-4.40e+00,
709,-6.00e+00,
710,-5.60e+00,
711,-6.80e+00,
712,-6.40e+00,
713,-7.60e+00,
714,-7.20e+00,
715,-8.40e+00,
716,-8.00e+00,
717,-9.20e+00,
718,-8.80e+00,
719,-9.60e+00,
720,-9.20e+00,
721,-1.00e+01,
722,-9.20e+00,
723,-1.00e+01,
724,-1.00e+01,
725,-9.60e+00,
726,-9.60e+00,
727,-1.08e+01,
728,-1.04e+01,
729,-9.60e+00,
730,-1.00e+01,
731,-9.20e+00,
732,-9.60e+00,
733,-8.40e+00,
734,-8.80e+00,
735,-7.60e+00,
736,-8.00e+00,
737,-6.40e+00,
738,-7.60e+00,
739,-6.00e+00,
740,-6.40e+00,
741,-4.80e+00,
742,-5.20e+00,
743,-4.00e+00,
744,-4.40e+00,
745,-2.80e+00,
746,-3.20e+00,
747,-1.20e+00,
748,-1.60e+00,
749,-4.00e-01,
750,-4.00e-01,
751,1.20e+00,
752,1.20e+00,
753,2.40e+00,
754,2.00e+00,
755,4.00e+00,
756,3.20e+00,
757,5.20e+00,
758,4.80e+00,
759,6.00e+00,
760,5.60e+00,
761,7.20e+00,
762,6.80e+00,
763,7.60e+00,
764,7.60e+00,
765,8.80e+00,
766,8.40e+00,
767,9.20e+00,
768,8.80e+00,
769,9.20e+00,
770,8.80e+00,
771,1.00e+01,
772,9.60e+00,
773,1.00e+01,
774,9.60e+00,
775,1.04e+01,
776,1.04e+01,
777,9.60e+00,
778,9.60e+00,
779,1.00e+01,
780,1.00e+01,
781,8.80e+00,
782,9.20e+00,
783,8.40e+00,
784,8.80e+00,
785,7.20e+00,
786,7.60e+00,
787,6.80e+00,
788,7.20e+00,
789,5.60e+00,
790,6.00e+00,
791,5.20e+00,
792,5.60e+00,
793,4.00e+00,
794,4.40e+00,
795,2.80e+00,
796,3.60e+00,
797,1.60e+00,
798,2.00e+00,
799,4.00e-01,
800,8.00e-01,
801,-1.20e+00,
802,-8.00e-01,
803,-2.00e+00,
804,-2.00e+00,
805,-3.20e+00,
806,-2.80e+00,
807,-4.80e+00,
808,-4.40e+00,
809,-6.00e+00,
810,-5.60e+00,
811,-6.80e+00,
812,-6.00e+00,
813,-7.60e+00,
814,-7.20e+00,
815,-8.40e+00,
816,-8.00e+00,
817,-9.20e+00,
818,-8.80e+00,
819,-9.60e+00,
820,-9.20e+00,
821,-1.00e+01,
822,-1.00e+01,
823,-9.20e+00,
824,-1.00e+01,
825,-9.60e+00,
826,-9.60e+00,
827,-1.08e+01,
828,-9.60e+00,
829,-1.08e+01,
830,-1.00e+01,
831,-9.20e+00,
832,-9.60e+00,
833,-8.80e+00,
834,-9.20e+00,
835,-7.60e+00,
836,-8.00e+00,
837,-6.40e+00,
838,-7.60e+00,
839,-6.00e+00,
840,-6.40e+00,
841,-4.80e+00,
842,-5.20e+00,
843,-4.00e+00,
844,-4.40e+00,
845,-2.80e+00,
846,-3.20e+00,
847,-1.20e+00,
848,-1.60e+00,
849,-4.00e-01,
850,-4.00e-01,
851,1.20e+00,
852,8.00e-01,
853,2.40e+00,
854,2.00e+00,
855,4.00e+00,
856,3.60e+00,
857,5.20e+00,
858,4.80e+00,
859,6.00e+00,
860,5.60e+00,
861,7.20e+00,
862,6.80e+00,
863,7.60e+00,
864,7.20e+00,
865,8.80e+00,
866,8.40e+00,
867,9.20e+00,
868,8.80e+00,
869,9.60e+00,
870,1.00e+01,
871,8.80e+00,
872,1.00e+01,
873,9.60e+00,
874,9.60e+00,
875,1.04e+01,
876,9.60e+00,
877,1.04e+01,
878,9.60e+00,
879,1.00e+01,
880,1.00e+01,
881,8.80e+00,
882,9.20e+00,
883,8.00e+00,
884,8.80e+00,
885,7.20e+00,
886,7.60e+00,
887,6.40e+00,
888,7.20e+00,
889,5.60e+00,
890,6.00e+00,
891,4.80e+00,
892,5.20e+00,
893,3.60e+00,
894,4.40e+00,
895,2.80e+00,
896,2.80e+00,
897,1.60e+00,
898,2.00e+00,
899,4.00e-01,
900,8.00e-01,
901,-1.20e+00,
902,-8.00e-01,
903,-2.00e+00,
904,-2.00e+00,
905,-3.20e+00,
906,-2.80e+00,
907,-4.80e+00,
908,-4.40e+00,
909,-6.00e+00,
910,-5.60e+00,
911,-6.80e+00,
912,-6.00e+00,
913,-7.60e+00,
914,-7.20e+00,
915,-8.40e+00,
916,-7.60e+00,
917,-9.20e+00,
918,-8.80e+00,
919,-9.60e+00,
920,-9.60e+00,
921,-8.80e+00,
922,-9.20e+00,
923,-1.00e+01,
924,-1.00e+01,
925,-9.60e+00,
926,-9.60e+00,
927,-1.08e+01,
928,-9.60e+00,
929,-1.08e+01,
930,-1.00e+01,
931,-9.20e+00,
932,-9.60e+00,
933,-8.80e+00,
934,-9.20e+00,
935,-7.60e+00,
936,-8.00e+00,
937,-6.40e+00,
938,-7.20e+00,
939,-6.00e+00,
940,-6.40e+00,
941,-4.80e+00,
942,-5.20e+00,
943,-4.00e+00,
944,-4.40e+00,
945,-2.80e+00,
946,-3.20e+00,
947,-1.20e+00,
948,-1.60e+00,
949,-4.00e-01,
950,-4.00e-01,
951,1.20e+00,
952,8.00e-01,
953,2.40e+00,
954,2.00e+00,
955,4.00e+00,
956,3.60e+00,
957,5.20e+00,
958,4.80e+00,
959,6.00e+00,
960,5.60e+00,
961,7.20e+00,
962,6.80e+00,
963,8.40e+00,
964,7.60e+00,
965,8.80e+00,
966,8.40e+00,
967,9.20e+00,
968,8.80e+00,
969,1.00e+01,
970,9.20e+00,
971,1.00e+01,
972,9.60e+00,
973,1.00e+01,
974,9.60e+00,
975,1.04e+01,
976,1.04e+01,
977,9.60e+00,
978,9.60e+00,
979,1.00e+01,
980,1.00e+01,
981,8.80e+00,
982,9.20e+00,
983,8.40e+00,
984,8.80e+00,
985,7.20e+00,
986,7.60e+00,
987,6.80e+00,
988,7.20e+00,
989,5.60e+00,
990,6.00e+00,
991,5.20e+00,
992,5.60e+00,
993,4.00e+00,
994,4.40e+00,
995,3.20e+00,
996,3.60e+00,
997,1.60e+00,
998,2.00e+00,
999,4.00e-01,
1000,8.00e-01,
1001,-1.20e+00,
1002,-8.00e-01,
1003,-2.00e+00,
1004,-1.60e+00,
1005,-3.20e+00,
1006,-2.80e+00,
1007,-4.80e+00,
1008,-4.40e+00,
1009,-6.00e+00,
1010,-5.60e+00,
1011,-6.80e+00,
1012,-6.40e+00,
1013,-7.60e+00,
1014,-7.20e+00,
1015,-8.40e+00,
1016,-8.00e+00,
1017,-9.20e+00,
1018,-8.80e+00,
1019,-9.60e+00,
1020,-9.20e+00,
1021,-1.00e+01,
1022,-1.00e+01,
1023,-9.20e+00,
1024,-1.00e+01,
1025,-9.60e+00,
1026,-9.60e+00,
1027,-1.08e+01,
1028,-1.08e+01,
1029,-9.60e+00,
1030,-1.04e+01,
1031,-9.20e+00,
1032,-9.60e+00,
1033,-8.80e+00,
1034,-9.20e+00,
1035,-7.60e+00,
1036,-8.00e+00,
1037,-6.40e+00,
1038,-7.60e+00,
1039,-6.00e+00,
1040,-6.40e+00,
1041,-4.80e+00,
1042,-5.20e+00,
1043,-4.00e+00,
1044,-4.40e+00,
1045,-2.80e+00,
1046,-3.20e+00,
1047,-1.20e+00,
1048,-1.60e+00,
1049,-4.00e-01,
1050,-4.00e-01,
1051,1.20e+00,
1052,8.00e-01,
1053,2.40e+00,
1054,2.00e+00,
1055,4.00e+00,
1056,3.60e+00,
1057,5.20e+00,
1058,4.80e+00,
1059,6.00e+00,
1060,5.60e+00,
1061,7.20e+00,
1062,6.80e+00,
1063,8.00e+00,
1064,8.00e+00,
1065,8.80e+00,
1066,8.40e+00,
1067,9.20e+00,
1068,8.80e+00,
1069,1.00e+01,
1070,9.60e+00,
1071,1.00e+01,
1072,1.00e+01,
1073,9.60e+00,
1074,9.60e+00,
1075,1.04e+01,
1076,9.60e+00,
1077,1.04e+01,
1078,9.60e+00,
1079,1.00e+01,
1080,1.00e+01,
1081,8.80e+00,
1082,9.20e+00,
1083,8.40e+00,
1084,8.80e+00,
1085,7.20e+00,
1086,7.60e+00,
1087,6.80e+00,
1088,7.20e+00,
1089,5.60e+00,
1090,6.00e+00,
1091,5.20e+00,
1092,5.60e+00,
1093,4.00e+00,
1094,4.40e+00,
1095,3.20e+00,
1096,3.60e+00,
1097,1.60e+00,
1098,2.00e+00,
1099,4.00e-01,
1100,8.00e-01,
1101,-8.00e-01,
1102,-4.00e-01,
1103,-2.00e+00,
1104,-1.60e+00,
1105,-3.20e+00,
1106,-2.80e+00,
1107,-4.80e+00,
1108,-4.00e+00,
1109,-6.00e+00,
1110,-5.20e+00,
1111,-6.40e+00,
1112,-6.00e+00,
1113,-7.60e+00,
1114,-7.20e+00,
1115,-8.40e+00,
1116,-7.60e+00,
1117,-9.20e+00,
1118,-8.00e+00,
1119,-9.60e+00,
1120,-8.80e+00,
1121,-9.60e+00,
1122,-9.20e+00,
1123,-1.00e+01,
1124,-1.00e+01,
1125,-9.60e+00,
1126,-9.60e+00,
1127,-1.08e+01,
1128,-1.08e+01,
1129,-9.60e+00,
1130,-1.04e+01,
1131,-9.20e+00,
1132,-9.60e+00,
1133,-8.80e+00,
1134,-9.20e+00,
1135,-7.60e+00,
1136,-8.00e+00,
1137,-6.40e+00,
1138,-7.60e+00,
1139,-6.00e+00,
1140,-6.40e+00,
1141,-5.20e+00,
1142,-5.20e+00,
1143,-4.00e+00,
1144,-4.40e+00,
1145,-2.80e+00,
1146,-3.20e+00,
1147,-1.20e+00,
1148,-2.00e+00,
1149,-4.00e-01,
1150,-4.00e-01,
1151,1.20e+00,
1152,1.20e+00,
1153,2.40e+00,
1154,2.00e+00,
1155,3.60e+00,
1156,3.20e+00,
1157,5.20e+00,
1158,4.80e+00,
1159,6.00e+00,
1160,5.60e+00,
1161,7.20e+00,
1162,6.80e+00,
1163,7.60e+00,
1164,7.20e+00,
1165,8.80e+00,
1166,8.40e+00,
1167,9.20e+00,
1168,9.20e+00,
1169,8.80e+00,
1170,8.80e+00,
1171,1.00e+01,
1172,9.60e+00,
1173,1.00e+01,
1174,9.60e+00,
1175,1.04e+01,
1176,1.04e+01,
1177,9.60e+00,
1178,9.60e+00,
1179,1.00e+01,
1180,1.00e+01,
1181,8.80e+00,
1182,9.20e+00,
1183,8.40e+00,
1184,8.80e+00,
1185,7.20e+00,
1186,8.00e+00,
1187,6.80e+00,
1188,7.20e+00,
1189,5.60e+00,
1190,6.40e+00,
1191,5.20e+00,
1192,5.60e+00,
1193,4.00e+00,
1194,4.40e+00,
1195,3.20e+00,
1196,3.60e+00,
1197,1.60e+00,
1198,2.40e+00,
1199,4.00e-01,
